	ID	Periode	IDRegent	IDFunctie	IDCollege	Begindag	Beginmaand	Beginjaar	Einddag	Eindmaand	Eindjaar	Vertegenwoordigend	provinciaal	Opmerkingen	lokaal	regio	stand
0	1	1	22	1	9.0	21.0	4.0	1722.0	30.0	4.0	1752	0		Aanvangsdatum: benoeming door de Staten van Holland.	1.0		
1	2	1	22	1	11.0	1.0	5.0	1752.0	16.0	11.0	1766	0		Beëindigd door overlijden.	1.0		
2	3	1	23	76	7.0	1.0	5.0	1764.0	30.0	4.0	1766	0			11.0		
3	4	1	23	1	11.0	1.0	5.0	1752.0	30.0	4.0	1754	0			11.0		
4	5	1	24	21	9.0	14.0	6.0	1724.0	30.0	4.0	1752	0					
5	6	1	24	21	11.0	1.0	5.0	1752.0	4.0	4.0	1754	0		Beëindigd door overlijden.			
6	7	1	24	21	13.0	5.0	9.0	1718.0	13.0	6.0	1724	0		Aanvangsdatum volgens Nationaal Archief, archief De Riemer, inv. nr. 41, blz. 197, 22 juli 1719. Beëindiging wegens benoeming tot secretaris van de Rekenkamer ter Auditie van Holland in het Zuiderkwartier (de einddatum daarvan afgeleid).			
7	8	1	25	76	7.0	1.0	5.0	1747.0	30.0	4.0	1749	0		Beëindiging wegens benoeming tot burgemeester van Leiden.	5.0		
8	9	1	25	1	11.0	1.0	5.0	1752.0	30.0	4.0	1755	0			5.0		
9	10	1	25	8	27.0	1.0	5.0	1739.0	25.0	7.0	1740	0	3.0	De reden van beëindiging is onbekend.	5.0		
10	11	1	26	76	7.0	1.0	5.0	1762.0	30.0	4.0	1763	0			2.0		
11	12	1	26	76	7.0	1.0	5.0	1766.0	30.0	4.0	1769	0			2.0		
12	13	1	26	1	11.0	1.0	5.0	1779.0	30.0	4.0	1781	0			2.0		
13	14	1	26	1	32.0	26.0	7.0	1776.0	8.0	5.0	1777	0	3.0		2.0		
14	15	1	27	1	11.0	1.0	5.0	1755.0	16.0	6.0	1756	0		Beëindigd door overlijden.	6.0		
15	16	1	28	1	11.0	1.0	5.0	1788.0	30.0	4.0	1791	0			6.0		
16	17	1	28	1	11.0	1.0	5.0	1794.0	28.0	1.0	1795	0		Beëindiging wegens opheffing van het college.	6.0		
17	18	1	28	1	29.0	9.0	5.0	1785.0	1.0	5.0	1788	0	3.0		6.0		
18	19	1	29	1	11.0	1.0	5.0	1761.0	4.0	2.0	1763	0		Beëindigd door overlijden.	6.0		
19	20	1	29	1	11.0	14.0	7.0	1756.0	30.0	4.0	1758	0		Aanvangsdatum: benoeming door de Staten van Holland.	6.0		
20	21	1	29	1	29.0	1.0	5.0	1758.0	30.0	4.0	1761	0	3.0		6.0		
21	23	1	30	1	11.0	25.0	2.0	1763.0	30.0	4.0	1764	0		Aanvangsdatum: benoeming door de Staten van Holland.	6.0		
22	24	1	30	1	32.0	28.0	2.0	1770.0	14.0	3.0	1782	0	3.0	Aanvangsdatum: benoeming door de Staten van Holland.	6.0		
23	25	1	30	1	33.0	19.0	2.0	1784.0	16.0	2.0	1785	0	3.0		6.0		
24	26	1	31	76	7.0	1.0	5.0	1783.0	30.0	4.0	1786	0			6.0		
25	27	1	31	1	11.0	1.0	5.0	1769.0	30.0	4.0	1772	0			6.0		
26	28	1	31	1	31.0	20.0	2.0	1787.0	23.0	3.0	1789	0	3.0		6.0		
27	29	1	32	76	7.0	1.0	5.0	1789.0	30.0	4.0	1792	0			6.0		
28	30	1	32	1	11.0	1.0	5.0	1776.0	30.0	4.0	1779	0			6.0		
29	31	1	32	1	11.0	1.0	5.0	1782.0	30.0	4.0	1785	0			6.0		
30	32	1	33	1	11.0	11.0	12.0	1766.0	28.0	1.0	1795	0		Aanvangsdatum: benoeming door de Staten van Holland. Beëindiging wegens opheffing van het college.	1.0		
31	33	1	33	5	13.0	27.0	1.0	1758.0	10.0	12.0	1766	0	3.0	De einddatum is afgeleid van de aanvangsdatum als gecommitteerde in de Provinciale Rekenkamer van Holland.			
32	34	1	34	76	7.0	1.0	5.0	1757.0	30.0	4.0	1758	0		Beëindiging wegens benoeming tot secretaris van de Provinciale Rekenkamer van Holland.	2.0		
33	35	1	34	1	28.0	1.0	5.0	1752.0	30.0	4.0	1755	0	3.0		2.0		
34	37	1	34	21	11.0	6.0	5.0	1758.0	18.0	11.0	1772	0		Aanvangsdatum: benoeming door de Staten van Holland.			
35	38	1	35	1	11.0	1.0	5.0	1794.0	28.0	1.0	1795	0		Beëindiging wegens opheffing van het college.	2.0		
36	40	1	36	1	11.0	1.0	5.0	1787.0	30.0	4.0	1790	0			2.0		
37	41	1	37	76	7.0	1.0	5.0	1781.0	30.0	4.0	1784	0			2.0		
38	42	1	37	1	11.0	1.0	5.0	1773.0	30.0	4.0	1776	0			2.0		
39	43	1	38	76	7.0	1.0	5.0	1758.0	30.0	4.0	1760	0			2.0		
40	44	1	38	1	11.0	1.0	5.0	1761.0	1.0	4.0	1762	0		Beëindigd door overlijden.	2.0		
41	45	1	38	8	27.0	1.0	5.0	1745.0	30.0	4.0	1748	0	3.0		2.0		
42	46	1	38	8	27.0	1.0	5.0	1754.0	30.0	4.0	1756	0	3.0	De reden van beëindiging is onbekend.	2.0		
43	47	1	39	1	11.0	21.0	4.0	1762.0	30.0	4.0	1764	0		Aanvangsdatum: benoeming door de Staten van Holland.	2.0		
44	48	1	39	1	30.0	12.0	4.0	1787.0	8.0	4.0	1790	0	3.0		2.0		
45	49	1	40	1	11.0	1.0	5.0	1754.0	30.0	4.0	1757	0			2.0		
46	50	1	41	1	11.0	1.0	5.0	1767.0	30.0	4.0	1770	0			2.0		
47	51	1	42	76	7.0	1.0	5.0	1775.0	30.0	4.0	1778	0			2.0		
48	52	1	42	1	11.0	1.0	5.0	1781.0	30.0	4.0	1782	0		Benoeming door de Staten van Holland op 4 mei.	2.0		
49	53	1	43	76	7.0	1.0	5.0	1765.0	30.0	4.0	1768	0			5.0		
50	54	1	43	1	11.0	1.0	5.0	1758.0	30.0	4.0	1761	0			5.0		
51	55	1	44	1	11.0	1.0	5.0	1766.0	30.0	4.0	1769	0			5.0		
52	56	1	45	1	11.0	1.0	5.0	1773.0	30.0	4.0	1776	0			5.0		
53	57	1	46	1	11.0	1.0	5.0	1779.0	30.0	4.0	1782	0			5.0		
54	58	1	47	1	11.0	1.0	5.0	1785.0	7.0	2.0	1787	0		Beëindiging wegens ontslag uit de vroedschap van Leiden.	5.0		
55	59	1	48	1	11.0	8.0	2.0	1787.0	30.0	4.0	1788	0		Aanvangsdatum: benoeming door de Staten van Holland.	5.0		
56	60	1	48	8	27.0	1.0	5.0	1793.0		1.0	1795	0	3.0		5.0		
57	61	1	49	76	7.0	1.0	10.0	1787.0	30.0	4.0	1788	0		Aanvangsdatum: benoeming door de Staten van Holland.	5.0		
58	62	1	49	76	7.0	1.0	5.0	1780.0	30.0	4.0	1783	0			5.0		
59	63	1	49	76	7.0	1.0	5.0	1786.0	28.0	8.0	1787	0		Beëindiging wegens ontslag uit de vroedschap van Leiden.	5.0		
60	64	1	49	1	11.0	1.0	5.0	1791.0	30.0	4.0	1794	0			5.0		
61	65	1	49	1	28.0	2.0	5.0	1788.0	1.0	5.0	1791	0	3.0		5.0		
62	66	1	49	8	27.0			1767.0	30.0	4.0	1769	0	3.0	De aanvangsdatum is afgeleid van de einddatum van voorganger Nicolaas van den Boetzelaer.	5.0		
63	67	1	51	76	7.0	1.0	5.0	1742.0	30.0	4.0	1744	0			12.0		
64	68	1	51	76	7.0	1.0	5.0	1748.0	30.0	4.0	1750	0			12.0		
65	69	1	51	76	7.0	1.0	5.0	1766.0	30.0	4.0	1768	0			12.0		
66	70	1	51	1	11.0	1.0	5.0	1755.0	30.0	4.0	1758	0			12.0		
67	71	1	51	1	30.0	16.0	3.0	1769.0	8.0	3.0	1772	0	3.0		12.0		
68	72	1	52	76	7.0	1.0	5.0	1770.0	30.0	4.0	1772	0			11.0		
69	73	1	52	76	7.0	1.0	5.0	1776.0	30.0	4.0	1778	0			11.0		
70	74	1	52	76	7.0	1.0	5.0	1782.0	30.0	4.0	1784	0			11.0		
71	75	1	52	76	7.0	1.0	5.0	1788.0	30.0	4.0	1790	0			11.0		
72	76	1	52	76	7.0	1.0	5.0	1794.0	28.0	1.0	1795	0			11.0		
73	77	1	52	1	11.0	1.0	5.0	1764.0	30.0	4.0	1767	0			11.0		
74	78	1	53	21	11.0	13.0	3.0	1779.0	28.0	1.0	1795	0		Aanvangsdatum: benoeming door de Staten van Holland. Beëindiging wegens opheffing van het college.			
75	79	1	54	76	7.0	1.0	5.0	1772.0	30.0	4.0	1774	0			12.0		
76	80	1	54	1	11.0	1.0	5.0	1767.0	30.0	4.0	1770	0			12.0		
77	81	1	54	1	30.0	8.0	4.0	1784.0	15.0	4.0	1790	0	3.0		12.0		
78	82	1	55	1	11.0	1.0	5.0	1752.0	30.0	4.0	1755	0			15.0		
79	83	1	55	1	11.0	1.0	5.0	1761.0	30.0	4.0	1764	0			15.0		
80	84	1	55	1	11.0	1.0	5.0	1767.0	30.0	4.0	1770	0			15.0		
81	86	1	56	76	7.0	1.0	5.0	1765.0	30.0	4.0	1768	0			3.0		
82	87	1	56	1	11.0	1.0	5.0	1770.0	30.0	4.0	1773	0			3.0		
83	88	1	56	1	11.0	1.0	5.0	1778.0	30.0	4.0	1781	0			3.0		
84	89	1	56	1	31.0	4.0	5.0	1773.0	30.0	4.0	1776	0	3.0		3.0		
85	90	1	56	8	27.0	1.0	5.0	1757.0	30.0	4.0	1760	0	3.0		3.0		
86	92	1	57	1	11.0	1.0	5.0	1775.0	30.0	4.0	1778	0			12.0		
87	93	1	58	76	7.0	26.0	11.0	1781.0	30.0	4.0	1783	0		Aanvangsdatum: benoeming door de Staten van Holland.	3.0		
88	94	1	58	1	11.0	1.0	5.0	1752.0	30.0	4.0	1755	0			3.0		
89	95	1	58	1	31.0	1.0	5.0	1770.0	3.0	5.0	1773	0	3.0		3.0		
90	96	1	59	76	7.0	21.0	2.0	1788.0	30.0	4.0	1789	0		Aanvangsdatum: benoeming door de Staten van Holland.	3.0		
91	97	1	59	1	11.0	1.0	5.0	1791.0	30.0	4.0	1794	0			3.0		
92	98	1	60	76	7.0	1.0	5.0	1744.0	30.0	4.0	1746	0			10.0		
93	99	1	60	1	11.0	1.0	5.0	1755.0	30.0	4.0	1758	0			10.0		
94	100	1	61	21	9.0			1702.0	30.0	4.0	1752	0					
95	101	1	61	21	11.0	1.0	5.0	1752.0	17.0	7.0	1754	0					
96	102	1	62	76	7.0	1.0	5.0	1760.0	30.0	4.0	1766	0			9.0		
97	103	1	62	1	11.0	1.0	5.0	1767.0	30.0	5.0	1770	0			9.0		
98	104	1	63	76	7.0	1.0	5.0	1764.0	30.0	4.0	1767	0			4.0		
99	105	1	63	1	11.0	1.0	5.0	1758.0	30.0	4.0	1761	0			4.0		
100	106	1	63	1	30.0	11.0	3.0	1768.0	14.0	3.0	1771	0	3.0		4.0		
101	107	1	63	8	27.0	1.0	5.0	1781.0	30.0	4.0	1784	0	3.0		4.0		
102	109	1	64	76	7.0	1.0	5.0	1768.0	30.0	4.0	1771	0			3.0		
103	110	1	64	1	11.0	1.0	5.0	1764.0	30.0	4.0	1767	0			3.0		
104	112	1	66	76	7.0	1.0	5.0	1763.0	30.0	4.0	1766	0			7.0		
105	113	1	66	1	11.0	1.0	5.0	1757.0	30.0	4.0	1760	0			7.0		
106	114	1	67	76	7.0	1.0	5.0	1768.0	30.0	4.0	1770	0			10.0		
107	115	1	67	76	7.0	1.0	5.0	1774.0	30.0	4.0	1776	0			10.0		
108	116	1	67	1	11.0	1.0	5.0	1776.0	30.0	4.0	1779	0			10.0		
109	117	1	68	1	11.0	11.0	4.0	1769.0	30.0	4.0	1770	0		Aanvangsdatum: benoeming door de Staten van Holland.	14.0		
110	118	1	68	1	11.0	1.0	5.0	1773.0	30.0	4.0	1776	0			14.0		
111	119	1	68	1	29.0	6.0	5.0	1784.0	30.0	4.0	1787	0	3.0		14.0		
112	120	1	68	8	27.0	1.0	5.0	1778.0	30.0	4.0	1781	0	3.0		14.0		
113	121	1	68	8	27.0	1.0	5.0	1787.0	29.0	5.0	1788	0	3.0	Beëindiging wegens ontslag uit de vroedschap van Hoorn.	14.0		
114	123	1	69	76	7.0	1.0	5.0	1778.0	30.0	4.0	1780	0			12.0		
115	124	1	69	1	11.0	1.0	5.0	1782.0	30.0	4.0	1785	0			12.0		
116	125	1	70	76	7.0	1.0	5.0	1779.0	30.0	4.0	1782	0			4.0		
117	126	1	70	1	11.0	1.0	5.0	1785.0	30.0	4.0	1788	0			4.0		
118	127	1	70	1	30.0	6.0	4.0	1775.0	7.0	4.0	1778	0	3.0		4.0		
119	129	1	71	76	7.0	1.0	5.0	1787.0	30.0	4.0	1790	0			7.0		
120	130	1	71	1	11.0	1.0	5.0	1790.0	30.0	4.0	1793	0			7.0		
121	131	1	72	1	11.0	1.0	5.0	1788.0	30.0	4.0	1791	0			10.0		
122	132	1	73	1	11.0	1.0	5.0	1758.0	30.0	4.0	1761	0			3.0		
123	133	1	73	1	11.0	1.0	5.0	1785.0	5.0	3.0	1787	0		Beëindigd door overlijden.	3.0		
124	134	1	74	1	11.0	1.0	5.0	1776.0	30.0	4.0	1779	0			11.0		
125	135	1	74	1	11.0	1.0	5.0	1791.0	30.0	4.0	1794	0			11.0		
126	136	1	75	76	7.0	1.0	5.0	1749.0	30.0	4.0	1751	0			9.0		
127	137	1	75	1	11.0	1.0	5.0	1773.0	30.0	4.0	1776	0			9.0		
128	138	1	76	76	7.0	1.0	5.0	1775.0	30.0	4.0	1781	0			9.0		
129	139	1	76	1	11.0	1.0	5.0	1755.0	30.0	4.0	1758	0			9.0		
130	140	1	76	1	11.0	1.0	5.0	1761.0	30.0	4.0	1764	0			9.0		
131	141	1	76	1	11.0	1.0	5.0	1781.0	30.0	4.0	1784	0			9.0		
132	142	1	76	1	28.0	1.0	5.0	1770.0	2.0	5.0	1773	0	3.0		9.0		
133	143	1	76	1	29.0	1.0	5.0	1767.0	30.0	4.0	1770	0	3.0		9.0		
134	144	1	77	1	11.0	1.0	5.0	1785.0	30.0	4.0	1788	0			19.0		
135	145	1	77	1	29.0	1.0	5.0	1781.0	5.0	5.0	1784	0	3.0		19.0		
136	146	1	78	1	11.0	1.0	5.0	1779.0	30.0	4.0	1782	0			14.0		
137	147	1	78	1	28.0	3.0	5.0	1790.0	30.0	4.0	1793	0	3.0		14.0		
138	148	1	78	1	33.0	8.0	4.0	1785.0	24.0	5.0	1787	0	3.0		14.0		
139	149	1	78	8	27.0	30.0	5.0	1788.0	30.0	4.0	1790	0	3.0	Aanvangsdatum: benoeming door de Staten van Holland.	14.0		
140	151	1	79	1	11.0	1.0	5.0	1788.0	30.0	4.0	1791	0			14.0		
141	152	1	79	1	11.0	1.0	5.0	1794.0	28.0	1.0	1795	0		Beëindiging wegens opheffing van het college.	14.0		
142	153	1	80	1	11.0	1.0	5.0	1758.0	30.0	4.0	1761	0			14.0		
143	154	1	80	1	11.0	1.0	5.0	1767.0	17.0	2.0	1769	0		Beëindigd door overlijden.	14.0		
144	155	1	81	76	8.0	1.0	5.0	1770.0	30.0	4.0	1772	0			14.0		
145	156	1	81	76	8.0	1.0	5.0	1774.0	30.0	4.0	1776	0			14.0		
146	157	1	81	76	8.0	1.0	5.0	1778.0	30.0	4.0	1780	0			14.0		
147	158	1	81	76	8.0	1.0	5.0	1781.0	26.0	12.0	1783	0			14.0		
148	159	1	81	1	11.0	1.0	5.0	1752.0	30.0	4.0	1755	0			14.0		
149	160	1	81	1	33.0	25.0	4.0	1765.0	30.0	4.0	1767	0	3.0		14.0		
150	162	1	82	18	28.0	19.0	1.0	1779.0		1.0	1790	0		Beëindigd door overlijden vóór 27 januari (begraven).			
151	163	1	82	21	11.0	23.0	7.0	1754.0	19.0	1.0	1779	0		Aanvangsdatum: benoeming door de Staten van Holland.			
152	164	1	83	1	11.0	1.0	5.0	1764.0	30.0	4.0	1767	0			7.0		
153	165	1	84	1	11.0	1.0	5.0	1794.0	28.0	1.0	1795	0		Beëindiging wegens opheffing van het college.	9.0		
154	166	1	85	76	7.0	1.0	5.0	1757.0	30.0	4.0	1760	0			9.0		
155	167	1	85	76	7.0	1.0	5.0	1781.0	30.0	4.0	1784	0			9.0		
156	168	1	85	1	11.0	1.0	5.0	1788.0	30.0	4.0	1791	0			9.0		
157	169	1	86	1	11.0	1.0	5.0	1764.0	2.0	10.0	1766	0		Beëindigd door overlijden.	4.0		
158	171	1	87	1	11.0	1.0	5.0	1791.0	30.0	4.0	1794	0			4.0		
159	172	1	88	1	11.0	1.0	5.0	1772.0	30.0	4.0	1775	0			4.0		
160	173	1	89	1	11.0	1.0	5.0	1752.0	30.0	4.0	1755	0			4.0		
161	175	1	90	1	11.0	1.0	5.0	1779.0	30.0	4.0	1782	0			4.0		
162	177	1	91	1	10.0	9.0	2.0	1751.0	30.0	4.0	1752	0			13.0		
163	178	1	91	1	11.0	1.0	5.0	1758.0	30.0	4.0	1761	0			13.0		
164	179	1	91	1	11.0	1.0	5.0	1752.0	30.0	4.0	1755	0			13.0		
165	180	1	91	1	33.0	29.0	1.0	1769.0	31.0	1.0	1771	0	3.0		13.0		
166	182	1	92	1	11.0	1.0	5.0	1755.0	30.0	4.0	1758	0			18.0		
167	183	1	93	1	11.0	1.0	5.0	1755.0	30.0	4.0	1758	0			17.0		
168	184	1	93	1	29.0	2.0	5.0	1763.0	30.0	4.0	1766	0	3.0		17.0		
169	185	1	94	1	11.0	1.0	5.0	1773.0	30.0	4.0	1776	0			13.0		
170	186	1	95	76	8.0	1.0	5.0	1786.0	22.0	5.0	1788	0			16.0		
171	187	1	95	76	8.0	30.0	10.0	1782.0	30.0	4.0	1784	0			16.0		
172	188	1	95	1	11.0	1.0	5.0	1755.0	30.0	4.0	1758	0			16.0		
173	189	1	95	1	11.0	1.0	5.0	1767.0	30.0	4.0	1770	0			16.0		
174	190	1	96	1	11.0	1.0	5.0	1758.0	30.0	4.0	1761	0			19.0		
175	191	1	96	1	11.0	1.0	5.0	1764.0	30.0	4.0	1767	0			19.0		
176	192	1	97	1	11.0	1.0	5.0	1761.0	30.0	4.0	1764	0			16.0		
177	193	1	98	76	8.0	1.0	8.0	1764.0	31.0	7.0	1767	0			17.0		
178	194	1	98	76	8.0	1.0	8.0	1769.0	31.0	7.0	1771	0			17.0		
179	195	1	98	1	11.0	1.0	5.0	1761.0	30.0	4.0	1764	0			17.0		
180	196	1	99	76	8.0	1.0	5.0	1772.0	8.0	5.0	1774	0			18.0		
181	197	1	99	1	11.0	1.0	5.0	1764.0	30.0	4.0	1767	0			18.0		
182	198	1	100	1	11.0	1.0	5.0	1752.0	28.0	3.0	1753	0		Beëindigd door overlijden.	8.0		
183	199	1	101	76	7.0	1.0	5.0	1757.0	30.0	4.0	1763	0			8.0		
184	200	1	101	1	11.0	1.0	5.0	1753.0	30.0	4.0	1755	0		Benoeming door de Staten van Holland op 9 mei.	8.0		
185	201	1	102	1	11.0	1.0	5.0	1760.0	30.0	4.0	1763	0			8.0		
186	202	1	103	76	7.0	1.0	5.0	1763.0	30.0	4.0	1766	0			8.0		
187	203	1	103	1	11.0	1.0	5.0	1767.0	30.0	4.0	1770	0			8.0		
188	204	1	104	1	11.0	1.0	5.0	1773.0	30.0	4.0	1776	0			8.0		
189	205	1	105	76	7.0	1.0	5.0	1784.0	30.0	4.0	1787	0			8.0		
190	206	1	105	76	7.0	24.0	4.0	1773.0	30.0	4.0	1775	0		Aanvangsdatum: benoeming door de Staten van Holland.	8.0		
191	207	1	105	1	11.0	1.0	5.0	1779.0	30.0	4.0	1782	0			8.0		
192	208	1	105	8	27.0	1.0	5.0	1769.0	30.0	4.0	1772	0	3.0		8.0		
193	209	1	106	76	7.0	1.0	2.0	1788.0	30.0	4.0	1790	0		Aanvangsdatum: benoeming door de Staten van Holland.	8.0		
194	210	1	106	1	11.0	1.0	5.0	1785.0	30.0	5.0	1788	0			8.0		
195	211	1	107	76	7.0	1.0	5.0	1790.0	30.0	4.0	1793	0			8.0		
196	212	1	107	1	11.0	1.0	5.0	1793.0	28.0	1.0	1795	0		Beëindiging wegens opheffing van het college.	8.0		
197	213	1	107	8	27.0	1.0	5.0	1787.0	30.0	4.0	1790	0	3.0		8.0		
198	214	1	108	1	11.0	1.0	5.0	1764.0	30.0	4.0	1767	0			13.0		
199	215	1	109	1	11.0	1.0	5.0	1779.0	30.0	4.0	1782	0			13.0		
200	216	1	110	1	11.0	1.0	5.0	1794.0	28.0	1.0	1795	0		Beëindiging wegens opheffing van het college.	12.0		
201	217	1	111	1	11.0	1.0	5.0	1761.0	30.0	4.0	1764	0			12.0		
202	218	1	112	1	11.0	1.0	5.0	1770.0	30.0	4.0	1773	0			11.0		
203	219	1	112	1	11.0	1.0	5.0	1784.0	30.0	4.0	1787	0			11.0		
204	220	1	113	76	7.0	1.0	5.0	1792.0	30.0	4.0	1794	0			10.0		
205	221	1	113	1	11.0	1.0	5.0	1770.0	30.0	4.0	1773	0			10.0		
206	222	1	114	1	11.0	1.0	5.0	1763.0	30.0	4.0	1766	0			10.0		
207	223	1	114	1	11.0	1.0	5.0	1782.0	30.0	4.0	1785	0			10.0		
208	224	1	115	1	11.0	1.0	5.0	1788.0	30.0	4.0	1791	0			12.0		
209	225	1	116	21	11.0	17.0	7.0	1754.0	2.0	1.0	1758	0		Aanvangsdatum: benoeming door de Staten van Holland. Beëindigd door overlijden.			
210	226	1	117	76	8.0	1.0	9.0	1791.0	31.0	8.0	1793	0			17.0		
211	227	1	117	1	11.0	1.0	5.0	1770.0	30.0	4.0	1773	0			17.0		
212	228	1	117	1	11.0	1.0	5.0	1776.0	30.0	4.0	1779	0			17.0		
213	229	1	117	1	11.0	1.0	5.0	1782.0	30.0	4.0	1785	0			17.0		
214	230	1	118	1	11.0	1.0	5.0	1791.0	30.0	4.0	1794	0			17.0		
215	231	1	119	76	8.0	1.0	5.0	1777.0	30.0	4.0	1779	0			19.0		
216	232	1	119	76	8.0	8.0	12.0	1779.0	30.0	4.0	1781	0			19.0		
217	233	1	119	1	11.0	1.0	5.0	1781.0	30.0	4.0	1782	0			19.0		
218	234	1	120	1	11.0	1.0	5.0	1791.0	30.0	4.0	1794	0			19.0		
219	235	1	121	76	8.0	1.0	5.0	1781.0	30.0	4.0	1783	0			19.0		
220	236	1	121	76	8.0	1.0	5.0	1785.0	30.0	4.0	1787	0			19.0		
221	237	1	121	76	8.0	30.0	6.0	1788.0			1788	0			19.0		
222	238	1	121	1	11.0	1.0	5.0	1779.0	30.0	4.0	1781	0			19.0		
223	239	1	122	1	11.0	1.0	5.0	1770.0	30.0	4.0	1773	0			19.0		
224	240	1	123	1	11.0	1.0	5.0	1791.0	30.0	4.0	1794	0			18.0		
225	241	1	124	1	11.0	1.0	5.0	1770.0	30.0	4.0	1773	0			18.0		
226	242	1	125	1	11.0	1.0	5.0	1785.0	30.0	4.0	1788	0			18.0		
227	243	1	126	1	11.0	1.0	5.0	1788.0	30.0	4.0	1791	0			16.0		
228	245	1	128	1	11.0	1.0	5.0	1776.0	30.0	4.0	1779	0			16.0		
229	246	1	128	1	11.0	1.0	5.0	1782.0	29.0	2.0	1784	0		Beëindiging wegens benoeming tot ontvanger van de gemenelandsmiddelen.	16.0		
230	247	1	129	1	11.0	1.0	5.0	1794.0	28.0	1.0	1795	0		Beëindiging wegens opheffing van het college.	15.0		
231	248	1	130	76	8.0	9.0	12.0	1778.0	11.0	1.0	1781	0			15.0		
232	249	1	130	76	8.0	10.0	1.0	1783.0	31.0	12.0	1784	0			15.0		
233	250	1	130	1	11.0	1.0	5.0	1773.0	30.0	4.0	1776	0			15.0		
234	251	1	131	76	8.0	1.0	1.0	1789.0	6.0	5.0	1789	0			13.0		
235	252	1	131	1	11.0	1.0	5.0	1785.0	12.0	12.0	1786	0		De reden van beëindiging is onbekend.	13.0		
236	253	1	132	1	11.0	13.0	12.0	1786.0	30.0	4.0	1788	0		Aanvangsdatum: benoeming door de Staten van Holland.	13.0		
237	254	1	133	76	8.0	7.0	5.0	1789.0	31.0	12.0	1790	0			13.0		
238	255	1	133	1	11.0	1.0	5.0	1794.0	28.0	1.0	1795	0		Beëindiging wegens opheffing van het college.	13.0		
239	256	1	134	1	11.0	1.0	5.0	1782.0	30.0	4.0	1785	0			15.0		
240	257	1	134	1	11.0	1.0	5.0	1788.0	30.0	4.0	1791	0			15.0		
241	258	1	135	76	7.0	1.0	5.0	1601.0	30.0	4.0	1603	0			2.0		
242	259	1	135	1	9.0			1598.0			1600	0			2.0		
243	260	1	135	5	12.0	17.0	11.0	1603.0	30.0	1.0	1638	0	3.0	Commissie door de Staten van Zeeland 8 december. Beëindigd door overlijden.			
244	262	1	136	76	7.0	1.0	5.0	1657.0	30.0	4.0	1660	0			2.0		
245	263	1	136	1	30.0	1.0	5.0	1643.0	18.0	4.0	1646	0	3.0	Aanvang: ingangsdatum. Commissie door de Staten-Generaal ontbreekt.	2.0		
246	264	1	136	5	13.0	16.0	3.0	1663.0	14.0	4.0	1667	0	3.0	Beëindigd door overlijden.			
247	265	1	137	76	7.0	1.0	5.0	1688.0	30.0	4.0	1691	0			2.0		
248	266	1	137	76	7.0	1.0	5.0	1709.0	30.0	4.0	1712	0			2.0		
249	267	1	137	76	7.0	1.0	5.0	1715.0	30.0	4.0	1718	0			2.0		
250	268	1	137	76	7.0	1.0	5.0	1703.0	30.0	4.0	1706	0			2.0		
251	269	1	138	76	7.0	1.0	5.0	1718.0	30.0	4.0	1721	0			2.0		
252	270	1	138	1	30.0	4.0	12.0	1727.0	20.0	4.0	1730	0	3.0		2.0		
253	271	1	138	1	32.0	30.0	4.0	1733.0	21.0	4.0	1735	0	3.0		2.0		
254	272	1	139	76	7.0	1.0	5.0	1724.0	30.0	4.0	1727	0			2.0		
255	273	1	139	76	7.0	1.0	5.0	1730.0	30.0	4.0	1733	0			2.0		
256	274	1	139	76	7.0	1.0	5.0	1736.0	13.0	1.0	1738	0		Beëindigd door overlijden.	2.0		
257	275	1	139	1	30.0	29.0	4.0	1733.0	23.0	3.0	1736	0	3.0		2.0		
258	276	1	139	8	27.0	1.0	5.0	1727.0	30.0	4.0	1728	0	3.0	De reden van beëindiging is onbekend.	2.0		
259	277	1	140	76	7.0	1.0	5.0	1733.0	30.0	4.0	1736	0			2.0		
260	278	1	140	1	30.0	21.0	4.0	1730.0	6.0	5.0	1731	0	3.0		2.0		
261	279	1	141	76	7.0	1.0	5.0	1669.0	30.0	4.0	1672	0			2.0		
262	280	1	141	76	7.0	6.0	11.0	1663.0	30.0	4.0	1666	0		Aanvangsdatum: sessiename. Opvolger neemt reeds op 30 april sessie.	2.0		
263	281	1	141	1	30.0	1.0	5.0	1652.0	22.0	3.0	1655	0	3.0	Aanvang: ingangsdatum. Commissie door de Staten-Generaal ontbreekt.	2.0		
264	282	1	142	76	7.0	9.0	1.0	1607.0			1613	0		Aanvangsdatum: benoeming door de Staten van Holland.	2.0		
265	283	1	143	76	7.0			1616.0	27.0	12.0	1618	0			2.0		
266	284	1	143	76	7.0	1.0	1.0	1594.0	30.0	4.0	1596	0			2.0		
267	285	1	143	76	7.0	1.0	5.0	1603.0	8.0	1.0	1607	0		Benoeming door de Staten van Holland op 24 mei. Beëindiging wegens benoeming tot burgemeester van Dordrecht (Nationaal Archief, Handschriften, inv. nr. 815, f. 64).	2.0		
268	286	1	143	1	32.0	1.0	5.0	1596.0	1.0	11.0	1600	0	3.0	Nieuwe commissie 2 augustus 1597.	2.0		
269	287	1	143	5	47.0	14.0	1.0	1599.0				0					
270	288	1	144	76	7.0	6.0	1.0	1599.0	1.0	12.0	1601	0		Aanvangsdatum: eedsaflegging. Beëindigd door overlijden.	2.0		
271	289	1	145	76	7.0	1.0	5.0	1649.0		8.0	1650	0		Ontslag wegens houding tegenover stadhouder Willem II.	2.0		
272	290	1	145	76	7.0	1.0	5.0	1637.0	12.0	12.0	1639	0		De reden van beëindiging is onbekend.	2.0		
273	291	1	145	1	9.0	1.0	5.0	1643.0	30.0	4.0	1646	0			2.0		
